time (s)	magX	magY	magZ
7734.433312	-29.491528	-307.183502	1087.112183
7734.436653	-46.265339	-288.247223	1099.677979
7734.439974	-62.337818	-267.615997	1110.256592
7734.443322	-79.520752	-247.160126	1116.218018
7734.446655	-97.405029	-225.593811	1121.594971
7734.449980	-114.529510	-203.092346	1122.646973
7734.453310	-130.718872	-179.421982	1123.640625
7734.456677	-147.726471	-155.225586	1122.530151
7734.459982	-164.091171	-130.853882	1116.802490
7734.463313	-179.929871	-105.547058	1109.730591
7734.466639	-195.359436	-81.467567	1099.561035
7734.469990	-210.672119	-56.394508	1087.462891
7734.473311	-225.108124	-31.730566	1074.020386
7734.476639	-238.199875	-6.832846	1058.123413
7734.479977	-251.174759	18.240210	1040.414429
7734.483308	-262.980743	41.910576	1021.244263
7734.486641	-274.669800	64.879601	1000.963745
7734.489979	-285.540649	87.205727	978.579224
7734.493304	-295.359467	109.122734	955.960815
7734.496645	-303.308014	129.344833	931.998230
7734.499981	-311.022797	149.683823	906.983643
7734.503335	-318.036255	167.743423	881.092285
7734.506640	-324.231445	185.569260	853.681396
7734.509972	-329.257751	201.875519	828.433105
7734.513310	-332.939819	217.480423	800.496155
7734.517937	-338.258362	243.663956	746.025146
7734.521254	-340.596161	255.411453	719.374023
7734.524174	-341.063721	266.223846	692.489197
7734.527543	-340.771484	276.276459	664.493835
7734.530893	-339.894806	284.049683	639.596130
7734.534204	-338.901245	292.056702	614.230896
7734.537537	-336.855652	298.018127	586.703125
7734.540814	-334.868530	302.810638	562.156067
7734.544178	-330.660461	307.427826	537.433655
7734.547510	-327.445953	310.817657	513.354187
7734.550403	-322.945648	313.973724	490.151367
7734.553740	-318.620697	315.025726	467.007019
7734.557078	-314.120392	316.194641	445.031555
7734.560432	-309.327911	316.720612	422.997681
7734.563725	-303.775574	315.668640	401.197540
7734.567066	-297.814178	314.207489	381.852142
7734.570385	-293.430756	312.921692	362.272949
7734.573302	-287.235535	310.174744	342.693756
7734.576628	-280.572784	307.661591	325.101685
7734.579988	-274.962036	304.914673	307.918762
7734.583297	-268.182373	301.291046	291.612518
7734.586629	-262.337830	297.199890	276.475159
7734.589963	-255.967270	292.874939	261.805359
7734.593293	-249.538284	288.783752	247.778503
7734.596634	-244.570419	284.634125	234.336060
7734.599965	-238.550552	279.958496	220.542969
7734.603321	-232.647568	275.049103	208.620087
7734.606630	-227.036819	269.496796	197.515503
7734.609968	-220.257156	264.645844	185.884857
7734.613297	-214.295715	259.677979	175.540054
7734.616631	-209.795456	254.593231	166.422562
7734.619965	-205.002930	250.385162	156.837524
7734.623324	-199.742844	245.125076	147.836929
7734.626633	-194.307419	239.923447	139.946823
7734.629959	-189.222672	234.897141	131.881363
7734.633298	-184.254807	229.987732	124.283463
7734.636623	-179.345413	224.727646	116.860901
7734.639959	-174.552887	219.993561	109.379898
7734.643289	-170.052597	215.259506	103.360031
7734.646624	-166.662766	210.291641	97.047928
7734.649958	-161.753357	205.499130	91.495621
7734.653292	-156.960846	200.765060	86.060196
7734.656621	-153.161896	196.264771	80.098785
7734.659953	-149.187607	191.296906	75.598480
7734.663339	-144.628860	187.205734	70.338394
7734.666659	-140.829910	182.705429	65.838104
7734.669957	-137.089417	178.906494	61.571594
7734.673294	-133.524246	174.639984	56.545296
7734.676627	-130.075974	171.133270	52.804794
7734.679953	-126.510803	166.749863	49.298080
7734.683289	-123.004089	163.243134	45.206902
7734.686619	-119.555817	159.502640	42.167740
7734.689958	-116.633545	155.995911	39.420815
7734.693290	-113.360611	151.963181	36.673874
7734.696624	-110.379898	149.508469	33.050262
7734.699953	-107.282288	145.709534	30.946228
7734.703283	-104.769135	142.319702	28.257744
7734.706622	-101.963760	138.929855	26.562828
7734.709953	-99.684387	135.949158	23.289886
7734.713287	-96.411453	132.734665	21.828758
7734.717536	-92.086502	126.890129	18.322029
7734.720816	-88.930450	124.026299	15.575104
7734.724131	-87.177094	121.513145	13.003510
7734.727505	-84.897720	119.350677	11.074814
7734.730826	-83.027466	116.253067	10.841026
7734.734149	-81.332550	114.499702	8.853889
7734.737543	-79.228516	112.044998	7.684982
7734.740914	-77.182938	109.707184	7.275864
7734.744145	-75.663345	107.778496	5.347168
7734.747037	-74.202209	105.148445	4.295151
7734.750377	-72.682648	103.570419	3.009354
7734.753719	-70.870834	101.583282	2.541794
7734.757038	-69.234360	99.011688	1.255989
7734.760365	-68.123901	97.842781	0.496201
7734.763710	-66.662766	96.147865	-0.263588
7734.767056	-65.727646	94.862061	-0.731152
7734.770415	-64.675629	93.108704	-1.490940
7734.773280	-62.863819	91.063118	-3.127407
7734.776619	-61.811802	89.952660	-3.185856
7734.779945	-60.292225	88.257744	-2.601402
7734.783301	-59.064869	86.738167	-3.945644
7734.786612	-58.421978	84.809464	-6.283455
7734.789944	-56.785503	83.640556	-5.582111
7734.793279	-55.908825	82.530098	-6.225014
7734.796616	-55.265926	80.718292	-6.692577
7734.799945	-54.447697	79.374046	-7.393921
7734.803276	-53.220341	78.497368	-7.978374
7734.806611	-52.635883	77.153130	-7.919933
7734.809938	-51.233196	75.925774	-8.504387
7734.813293	-50.882526	74.873756	-8.445938
7734.816608	-49.947399	73.120392	-9.673290
7734.819942	-49.713619	72.126831	-9.907074
7734.823269	-48.895382	71.250145	-10.140854
7734.826608	-47.843365	70.782585	-10.725307
7734.829945	-46.499119	69.321449	-11.192871
7734.833271	-45.797779	68.620110	-11.601986
7734.836685	-45.505558	67.217415	-11.426651
7734.839942	-44.453541	66.457626	-11.192871
7734.843270	-43.226185	65.522499	-11.309761
7734.846604	-42.817066	65.230270	-11.309761
7734.849938	-42.291058	64.295151	-12.011105
7734.853267	-41.998829	63.944473	-13.004677
7734.856624	-41.180592	62.483345	-13.355347
7734.859939	-40.596142	62.600235	-13.589130
7734.863272	-40.654591	61.139099	-13.764465
7734.866599	-39.485683	60.671539	-13.530685
7734.869935	-39.135014	59.911751	-12.887787
7734.873267	-38.550556	59.444183	-13.881355
7734.876598	-38.375217	58.918175	-14.232029
7734.879932	-38.375217	58.509056	-13.822910
7734.883269	-37.440090	57.749268	-14.407364
7734.886601	-36.563412	56.989479	-13.413792
7734.889935	-36.680309	56.931038	-14.582699
7734.893291	-36.095852	57.047928	-13.939800
7734.896607	-36.154293	56.054352	-13.822910
7734.899947	-35.978962	55.586792	-14.290474
7734.903264	-35.628292	55.119232	-14.173584
7734.906596	-35.160725	54.827003	-13.998245
7734.909936	-35.336063	54.710114	-14.348919
7734.914561	-35.277615	54.125656	-14.465809
7734.917508	-35.043835	53.365868	-14.056690
7734.920793	-34.576275	53.716537	-14.641144
7734.924177	-34.167156	53.073639	-14.232029
7734.927508	-34.050262	52.606079	-14.699589
7734.930836	-33.524250	52.372299	-14.699589
7734.934115	-34.108707	52.080070	-13.822910
7734.937490	-33.991821	52.255402	-14.290474
7734.940797	-33.407360	52.138512	-14.582699
7734.943694	-33.407360	51.963181	-13.881355
7734.947044	-33.173580	51.495613	-14.465809
7734.950363	-33.115139	51.495613	-14.173584
7734.953701	-32.589127	51.320282	-14.582699
7734.957067	-32.355347	51.203392	-14.173584
7734.960378	-32.004673	51.320282	-14.758038
7734.963679	-32.296902	50.969604	-14.641144
7734.967025	-32.472237	50.969604	-14.758038
7734.969928	-31.770893	50.794273	-15.167152
7734.973262	-31.478668	50.443604	-14.758038
7734.976592	-30.777325	50.618935	-14.816483
7734.979962	-31.712448	50.560493	-14.874928
7734.983257	-31.127995	50.677383	-14.758038
7734.986590	-31.537109	50.209816	-15.108707
7734.989924	-31.361778	50.092926	-14.816483
7734.993263	-30.543545	50.735825	-15.985390
7734.996587	-30.777325	50.677383	-14.816483
7734.999927	-31.478668	50.794273	-14.874928
7735.003264	-31.478668	51.378723	-15.342487
7735.006599	-31.011105	50.969604	-15.985390
7735.009925	-31.770893	51.261833	-15.926941
7735.013254	-31.478668	51.787842	-15.576271
7735.016582	-31.186440	51.261833	-15.517826
7735.019922	-31.127995	52.021622	-15.225597
7735.023287	-31.303329	51.554062	-15.284042
7735.026583	-30.601986	51.846291	-15.342487
7735.029921	-31.946232	52.080070	-14.933372
7735.033247	-31.712448	52.430740	-14.758038
7735.036584	-32.413792	53.015198	-14.115135
7735.039916	-32.180012	52.781410	-14.173584
7735.043248	-32.004673	53.365868	-14.056690
7735.046583	-32.180012	53.950317	-14.524254
7735.049921	-32.180012	54.125656	-14.758038
7735.053253	-32.764465	55.060783	-14.582699
7735.056590	-32.180012	54.417885	-14.407364
7735.059912	-32.589127	55.411453	-14.524254
7735.063268	-32.647575	56.171249	-14.758038
7735.066602	-33.348919	56.346581	-14.465809
7735.069919	-33.582699	56.580360	-14.056690
7735.073254	-33.465809	57.690826	-13.764465
7735.076587	-33.348919	57.866158	-13.939800
7735.079914	-33.699593	58.216835	-13.998245
7735.083251	-33.933372	58.976624	-14.290474
7735.086580	-34.342495	58.859734	-13.706020
7735.089912	-34.167156	59.268845	-13.939800
7735.093254	-34.342495	59.853302	-13.998245
7735.096599	-35.043835	60.379311	-14.173584
7735.099908	-34.634716	61.080650	-13.296902
7735.103247	-35.511402	62.015778	-13.472237
7735.106586	-35.277615	62.308006	-13.238457
7735.111270	-36.504971	63.827583	-13.121567
7735.114156	-36.855640	64.879601	-12.537113
7735.117434	-36.855640	65.522499	-12.712448
7735.120769	-36.797199	66.457626	-12.478668
7735.124087	-37.147869	67.451195	-12.537113
7735.127454	-37.732319	68.737000	-12.186440
7735.130787	-37.615429	68.853889	-12.829338
7735.134150	-38.024548	70.139687	-12.303333
7735.137491	-39.310345	70.724136	-11.718876
7735.140790	-39.135014	72.126831	-11.075981
7735.143667	-39.894794	72.828171	-11.309761
7735.146995	-40.888371	74.523087	-11.075981
7735.150336	-41.180592	75.516655	-10.199295
7735.153682	-41.706608	76.510223	-9.848625
7735.156996	-42.700169	77.737579	-9.556400
7735.160334	-43.109295	78.964935	-9.088837
7735.163691	-43.576855	80.426064	-9.030392
7735.167012	-44.219761	81.536530	-9.147282
7735.169934	-44.687321	82.413208	-8.329044
7735.173238	-45.037991	83.932785	-7.803040
7735.176569	-45.797779	85.686142	-7.744591
7735.179905	-46.908245	87.088837	-6.809467
7735.183260	-47.551136	88.433075	-6.108124
7735.186573	-48.135593	90.712448	-5.874344
7735.189902	-49.421391	91.822906	-4.822327
7735.193244	-49.596729	94.160721	-4.237873
7735.196582	-50.940968	95.621857	-4.296314
7735.199904	-51.350086	97.375214	-2.659847
7735.203236	-51.817654	99.420807	-2.133842
7735.206567	-52.869663	101.232605	-1.666279
7735.209901	-53.571011	103.219749	-0.906487
7735.213237	-54.739918	105.090004	0.496201
7735.216574	-56.025715	107.077148	0.905315
7735.219903	-57.486851	109.707184	1.898891
7735.223232	-58.012859	112.044998	2.834015
7735.226583	-58.421978	114.149040	4.061371
7735.229909	-59.649326	117.129745	4.996498
7735.233228	-60.584454	119.467560	6.048515
7735.236568	-61.694912	121.863823	7.743423
7735.239907	-63.565166	124.844528	8.853889
7735.243235	-64.734070	127.883690	10.139687
7735.246565	-65.552307	129.870834	11.776154
7735.249896	-66.370544	133.319107	13.237289
7735.253234	-67.130341	136.592056	14.406197
7735.256562	-68.942139	139.981888	16.218002
7735.259901	-69.468155	143.254822	17.679138
7735.263228	-70.870834	146.293991	19.374046
7735.266561	-72.682648	150.209824	22.237869
7735.269901	-73.968430	153.658096	24.458794
7735.273230	-74.728226	157.106369	26.212158
7735.276558	-76.773804	161.197556	28.433075
7735.279899	-77.416718	165.580948	30.537117
7735.283231	-79.696091	169.789017	33.459381
7735.286556	-81.449448	173.997086	37.082993
7735.289911	-82.969025	178.731155	40.414375
7735.293226	-83.904144	182.647003	42.810638
7735.296563	-85.832840	187.965515	46.434250
7735.299923	-87.703094	192.874924	49.707191
7735.303226	-89.982468	198.310349	54.032143
7735.306558	-92.086502	203.804214	58.240219
7735.311181	-95.826996	214.558167	67.942139
7735.314115	-98.281708	220.285797	72.793106
7735.317425	-100.035065	226.071899	77.527176
7735.320804	-101.905319	232.442444	82.611923
7735.324165	-103.483337	238.111633	88.456451
7735.327408	-105.353592	244.657516	94.008774
7735.330740	-107.165390	250.443604	99.911743
7735.334072	-109.035645	257.281708	106.282288
7735.337428	-110.847458	264.178253	113.880188
7735.340757	-112.717712	271.659271	121.653412
7735.343699	-114.938629	278.380493	129.134430
7735.347001	-116.750443	285.569275	136.615417
7735.350333	-118.562241	292.699585	144.973114
7735.353641	-120.257156	299.946838	153.856812
7735.357000	-121.952072	307.310944	162.974289
7735.360310	-122.828751	315.084167	172.150208
7735.363637	-123.880768	322.974304	181.443008
7735.366980	-125.225021	331.273529	191.729401
7735.369878	-126.686142	338.929871	202.834015
7735.373219	-128.147278	346.703094	215.282867
7735.376559	-128.848618	355.703674	226.796600
7735.379906	-129.491516	363.827576	239.479248
7735.383216	-130.017532	371.250153	252.746338
7735.386557	-130.134430	379.724731	266.013428
7735.389882	-130.251312	387.439514	281.618347
7735.393221	-130.660431	395.738770	295.236115
7735.396549	-129.900650	402.810638	312.126831
7735.399883	-128.614838	410.525452	329.017517
7735.403221	-127.855042	418.590881	345.499146
7735.406549	-126.919922	425.136749	364.201660
7735.409880	-125.108124	432.676208	383.137939
7735.413218	-123.004089	438.403839	402.600250
7735.416547	-120.140259	444.306854	422.763885
7735.419885	-117.218002	450.209808	443.687317
7735.423245	-113.945053	454.008759	466.071899
7735.426547	-109.795441	458.625946	487.287598
7735.429878	-105.704254	462.424896	510.198120
7735.433212	-100.677963	464.353607	533.985352
7735.436541	-95.300995	466.165405	558.064880
7735.439875	-88.872009	466.925201	581.384583
7735.443217	-81.741669	466.808319	606.983643
7735.446543	-74.202209	464.645813	631.822937
7735.449893	-66.253647	462.541809	656.662170
7735.453248	-56.960842	458.099945	682.027466
7735.456542	-47.784916	453.190521	707.977234
7735.459880	-37.673870	447.170685	733.926941
7735.463211	-26.510811	438.871429	758.357117
7735.466570	-14.704853	430.513763	784.540588
7735.469872	-2.782001	420.052002	808.620117
7735.473214	10.075979	408.830536	832.465820
7735.476538	23.576855	395.797211	856.369934
7735.479871	38.480423	381.302765	877.994751
7735.483203	53.442429	365.639404	900.788452
7735.486535	69.222672	349.450043	922.237854
7735.489873	84.476913	331.039734	941.291077
7735.493202	100.958496	312.395691	959.409119
7735.496536	117.849213	292.524261	976.358276
7735.499873	133.921677	273.120392	991.437256
7735.503210	151.455292	251.670959	1005.405518
7735.506539	168.112228	229.753952	1017.912964
7735.511227	202.536530	184.283463	1035.271240
7735.514497	219.953247	160.729996	1041.817017
7735.517387	236.785507	136.884277	1046.784912
7735.520743	252.273544	112.512558	1046.083618
7735.524072	268.053772	89.017532	1046.375854
7735.527482	283.015778	64.938049	1045.206909
7735.530799	297.568665	41.559906	1038.953247
7735.534119	311.653992	18.181765	1033.926880
7735.537388	323.810638	-6.131502	1022.530151
7735.540718	336.084137	-27.931620	1012.419067
7735.543627	347.539429	-49.731735	997.515503
7735.546956	358.176514	-70.596725	984.306885
7735.550300	367.352417	-90.760368	968.643555
7735.553658	375.067200	-110.456467	948.888916
7735.556975	381.963745	-128.516068	930.887756
7735.560303	389.620087	-145.348328	908.327942
7735.563640	394.471069	-162.063690	885.475769
7735.566953	398.912903	-177.551727	861.805420
7735.569867	401.426056	-190.701920	837.725891
7735.573207	402.536530	-203.969025	811.659302
7735.576535	404.172974	-215.950317	786.001709
7735.579860	404.699005	-226.119812	758.298645
7735.583227	403.763885	-235.704849	733.576233
7735.586529	402.653381	-244.237885	705.113342
7735.589860	399.906494	-251.485077	679.923462
7735.593198	396.808868	-258.264771	651.460571
7735.596539	393.828156	-263.933960	626.855042
7735.599860	388.568085	-267.615997	599.210388
7735.603196	384.184692	-272.116302	574.604919
7735.606526	378.690796	-274.571014	550.233154
7735.609866	373.547607	-276.382812	524.634155
7735.613214	367.878418	-278.311523	499.619507
7735.616541	361.274078	-279.363525	477.001160
7735.619861	354.786682	-278.895966	454.207458
7735.623199	348.533020	-279.071320	433.167175
7735.626547	342.045593	-278.194611	410.081238
7735.629860	335.733459	-276.908844	390.268280
7735.633189	328.369354	-274.980133	371.156647
7735.636527	321.648163	-272.817627	351.109894
7735.639865	314.050262	-269.427826	334.043854
7735.643195	306.861481	-267.557556	316.510223
7735.646525	299.964905	-264.459961	299.677979
7735.649853	293.185272	-261.187042	283.897705
7735.653190	285.821136	-257.797211	268.643494
7735.656547	279.158386	-254.056702	254.265930
7735.659857	272.203400	-250.023956	239.245483
7735.663190	266.358856	-245.465210	226.095276
7735.666526	259.228516	-242.133835	214.523071
7735.669852	253.091766	-238.218002	201.840454
7735.673185	246.487427	-233.483917	190.385162
7735.676518	240.292236	-229.918747	179.105194
7735.679854	234.272369	-225.944473	169.111038
7735.683187	228.310928	-221.677948	159.584457
7735.686521	222.174164	-217.820572	150.817657
7735.689854	215.803619	-213.086487	141.524841
7735.693191	209.316193	-209.345993	132.524261
7735.696520	204.289886	-205.137924	124.751022
7735.699885	198.562241	-200.871429	117.445358
7735.703191	193.594406	-196.604904	109.905899
7735.706518	187.983627	-192.513733	103.769135
7735.709852	182.314438	-188.597900	96.931030
7735.714536	172.378738	-181.058441	84.715958
7735.717461	168.638229	-177.201050	79.222092
7735.720765	163.904160	-173.577423	74.838684
7735.724098	158.936295	-169.018707	69.929291
7735.727359	155.137344	-165.921097	65.078308
7735.730696	151.163071	-162.881943	61.279373
7735.734048	146.545868	-159.082993	57.129745
7735.737393	142.863815	-155.634720	52.746353
7735.740763	139.357101	-152.186432	49.648743
7735.743661	136.493271	-148.738159	45.732910
7735.746965	132.694321	-145.932785	43.395096
7735.750275	129.187607	-142.952072	40.122154
7735.753608	126.323792	-140.029800	37.199883
7735.756962	122.933960	-136.756866	34.277618
7735.760276	120.245468	-134.068375	31.472244
7735.763606	117.615433	-131.613678	29.309761
7735.766936	114.050262	-128.574524	28.023964
7735.769844	112.355347	-126.470497	25.861481
7735.773181	109.783752	-124.308006	23.815903
7735.776509	107.153717	-121.736412	22.062538
7735.779843	104.757446	-119.515495	19.666275
7735.783180	102.536530	-117.119225	18.322029
7735.786521	100.023376	-114.722969	17.211571
7735.789905	97.919342	-112.326714	14.990654
7735.793173	95.406204	-109.872002	14.055527
7735.796512	93.828171	-108.293983	12.360611
7735.799841	91.957916	-105.897720	11.483932
7735.803176	90.087669	-103.735245	10.315018
7735.806505	88.392746	-102.215668	8.912331
7735.809838	86.054939	-99.585625	7.743423
7735.813171	84.710693	-98.241386	6.749855
7735.816503	83.775566	-96.429573	6.516075
7735.819845	81.846878	-95.202217	4.704269
7735.823202	80.268845	-92.747520	3.535362
7735.826506	78.223259	-91.169495	2.483345
7735.829840	76.879013	-89.766808	1.957340
7735.833170	75.184097	-88.656342	2.015781
7735.836503	73.606079	-86.902985	0.729984
7735.839839	72.670952	-85.208069	-0.088249
7735.843177	71.034485	-83.980713	-1.081825
7735.846508	69.514908	-82.870255	-0.906487
7735.849861	68.170654	-81.701347	-1.666279
7735.853170	67.527756	-80.357101	-1.900059
7735.856509	66.125076	-79.421974	-3.945644
7735.859834	65.540619	-77.960846	-3.770309
7735.863174	63.904152	-77.610176	-4.120983
7735.866508	63.261253	-75.798363	-4.763878
7735.869838	62.267681	-74.571014	-5.231441
7735.873185	61.215660	-74.337227	-5.757450
7735.876500	60.572762	-72.642319	-5.523670
7735.879837	59.579193	-71.707191	-6.341904
7735.883169	58.410286	-70.947403	-6.867908
7735.886501	57.767387	-70.012276	-6.809467
7735.889838	56.656925	-69.427818	-6.867908
7735.893167	55.955582	-68.726479	-8.153713
7735.896499	55.254238	-67.849792	-7.919933
7735.899832	54.494446	-67.090012	-8.212154
7735.903170	54.202221	-66.563995	-7.452370
7735.906501	53.208649	-65.804214	-8.153713
7735.909890	52.741089	-65.102867	-8.270603
7735.914435	51.922852	-64.284630	-8.796608
7735.917369	51.338402	-63.524841	-8.738167
7735.920681	50.578609	-62.706604	-8.855057
